Time [s],Autoclave Body Heat Transfer [kWh],Heat Lost To The Environment[kWh],Mould Assembly Heat Transfer [kWh],Simulated Energy Log [kWh],Experimental Energy Log [kWh]
0.0,0.0,0.0,0.0,0.0,-0.008611111
50.0,0.0,3.4229957115122227e-17,0.0,3.4229957115122227e-17,0.021111111
100.0,0.039793144568958265,2.8248272109286057e-13,0.0007523426453213113,0.04054548721456205,0.042638889
150.0,0.10867109100513765,6.695240998047706e-10,0.0020466197133427225,0.11071771138800446,0.179305556
200.0,0.1834884362720918,2.5322074764461787e-08,0.003442753700139082,0.18693121529430565,0.31
250.0,0.27731263824653596,2.450188754358758e-07,0.00518884574028212,0.28250172900569354,0.614305556
300.0,0.3732114509442751,1.2232884690550734e-06,0.006963079503807798,0.380175753736552,0.838194444
350.0,0.48578078778714956,4.148724346889408e-06,0.009042609335111423,0.49482754584660793,1.158611111
400.0,0.5987953662348681,1.0950940985129003e-05,0.01111911673295937,0.6099254339088126,1.391388889
450.0,0.7272413520438784,2.429501883378193e-05,0.013477309936614505,0.7407429569993267,1.715
500.0,0.8551259227671473,4.749673837555539e-05,0.015813467250356837,0.8709868867558795,1.946527778
550.0,0.9975822054434942,8.440183771441596e-05,0.01841527399538641,1.016081881276595,2.269305556
600.0,1.1387162109154965,0.00013925856476978824,0.020981052673038344,1.1598365221533047,2.500277778
650.0,1.2937320216060468,0.00021659941141708033,0.023799974282385842,1.3177485952998502,2.822777778
700.0,1.446789940530325,0.00032113888024047974,0.026571499477976827,1.4736825788885428,3.053333333
750.0,1.6131379889018984,0.00045768896110077485,0.029585711999213005,1.6431813898622125,3.374166667
800.0,1.7769736656561015,0.0006310913914997249,0.03254283241539199,1.8101475894629935,3.603888889
850.0,1.9535775545532805,0.000846164671751462,0.03573359599998174,1.9901573152250136,3.924027778
900.0,2.1271763492169913,0.0011076635042265943,0.03885879460238154,2.1671428073235997,4.152222222
950.0,2.313077244730428,0.0014202484148603692,0.042209672969666226,2.356707166114955,4.47125
1000.0,2.495531468307597,0.0017884635692219579,0.04548748317356867,2.5428074150503877,4.699027778
1050.0,2.6898690113914063,0.002216721097900794,0.04898388979457993,2.741069622283888,5.0175
1100.0,2.8803624004753465,0.0027092905405252813,0.05240053082276239,2.9354722218386353,5.245
1150.0,3.082361606475268,0.003270292280477948,0.056029427719594335,3.141661326475341,5.562638889
1200.0,3.280157952042417,0.003903694065962818,0.05957255009512013,3.3436341962035003,5.78875
1250.0,3.4891191299721114,0.004613309898091269,0.06332222876272328,3.5570546686329263,6.104027778
1300.0,3.693553200356284,0.00540280071707732,0.06698072283652595,3.7659367239098884,6.327777778
1350.0,3.9088436849049923,0.006275676438537793,0.07084063477761915,3.9859599961211503,6.643888889
1400.0,4.1193136295593105,0.007235298988344108,0.07460447915518108,4.2011534077028365,6.868611111
1450.0,4.340360756187004,0.008284886061015514,0.0785650991014845,4.427210741349506,7.190138889
1500.0,4.5563215761473765,0.009427515387186522,0.08242523628046206,4.648174327815027,7.416666667
1550.0,4.7826065877221104,0.010666129343446856,0.08647794838905895,4.879750665454617,7.735277778
1600.0,5.003564431095387,0.012003539775483279,0.09042618004170382,5.105994150912576,7.992222222
1650.0,5.23461712356327,0.013442432935054378,0.094563181080805,5.342622737579131,8.333888889
1700.0,5.460124249186538,0.014985374454601486,0.0985920781820882,5.573701701823228,8.595972222
1750.0,5.69551822598698,0.016634814301569673,0.10280629381225248,5.814959334100804,8.98625
1800.0,5.925168525238654,0.018393091668852737,0.10690911841933969,6.050470735326847,9.321944444
1850.0,6.164516966228666,0.020262439769009283,0.1111941299225677,6.295973535920244,9.7475
1900.0,6.397941961265286,0.022244990508693812,0.11536476638950408,6.535551718163484,10.01347222
1950.0,6.640893834496614,0.024342779026614275,0.1197147459734095,6.784951359496638,10.52180556
2000.0,6.877759089476501,0.02655774808368472,0.12394764000360207,7.028264477563788,10.83319444
2050.0,7.110331210459979,0.02889175229820019,0.1280979422805202,7.2673209050387,11.14527778
2100.0,7.3001017886908315,0.03134656220555738,0.131441551374585,7.462889902270974,11.36555556
2150.0,7.474547729213563,0.03392386453250661,0.13450391691964034,7.6429755106657105,11.66972222
2200.0,7.637884225185415,0.03662521356275175,0.1373654828923633,7.8118749216405305,11.81986111
2250.0,7.791953463766025,0.039451850818444927,0.14006153359749204,7.971466848181962,12.00166667
2300.0,7.937872186570244,0.04240444677080217,0.1426135640786809,8.122890197419727,12.09263889
2350.0,8.076406979418662,0.04548290931639725,0.1450363785283503,8.26692626726341,12.20263889
2400.0,8.208130570051724,0.04868632239217362,0.14734101938840205,8.4041579118323,12.27555556
2450.0,8.333501094575423,0.052012992837524086,0.1495362516096274,8.535050339022575,12.34611111
2500.0,8.452905165582198,0.05546055868859097,0.15162937878000876,8.659995103050797,12.41625
2550.0,8.566682048015652,0.059026120175018196,0.15362671254703192,8.779334880737702,12.48763889
2600.0,8.675137577125751,0.06270636959014511,0.155533852507245,8.89337779922314,12.53347222
2650.0,8.778552401170678,0.06649770809903115,0.15735585928040058,9.002405968550109,12.58388889
2700.0,8.877187040017448,0.07039634500145164,0.1590973658701553,9.106680750889053,12.63069444
2750.0,8.971285130204606,0.07439837902620618,0.16076265245148774,9.2064461616823,12.67902778
2800.0,9.061075617640409,0.07849986316670703,0.16235569886263482,9.30193117966975,12.7275
2850.0,9.146774324983907,0.0826968553045857,0.16388022306933703,9.39335140335783,12.77486111
2900.0,9.22858513626915,0.08698545698541185,0.16533971049489452,9.480910303749457,12.81930556
2950.0,9.306700938676002,0.09136184253839767,0.1667374371856556,9.564800218400057,12.86680556
3000.0,9.38130440369105,0.09582228044756012,0.16807648866524455,9.645203172803857,12.91208333
3050.0,9.452568657139981,0.1003631485750737,0.16935977566978105,9.722291581384837,12.95722222
3100.0,9.520657868691123,0.10498094455026347,0.17059004755559803,9.796228860796987,12.99888889
3150.0,9.585727780357837,0.10967229238633791,0.17176990392154892,9.867169976665725,13.04611111
3200.0,9.647926186899383,0.1144339461753066,0.17290180482828935,9.935261937902983,13.09083333
3250.0,9.707393376955475,0.11926279153740313,0.17398807989160306,10.000644248384484,13.13472222
3300.0,9.764262541189,0.12415584536019779,0.17503093645534443,10.063449323004544,13.17638889
3350.0,9.818660152050255,0.12911025424929876,0.17603246699968744,10.123802873299244,13.22458333
3400.0,9.870706318665155,0.13412329202219608,0.17699465590469446,10.181824266592049,13.26625
3450.0,9.920515119584547,0.13919235650506873,0.1779193856631463,10.237626861752764,13.31041667
3500.0,9.968194915589013,0.14431496583558545,0.17880844261717063,10.291318324041772,13.35208333
3550.0,10.013848644348537,0.14948875442986076,0.17966352227853938,10.34300092105694,13.39805556
3600.0,10.057574098441783,0.15471146873632668,0.1804862342812772,10.39277180145939,13.43972222
3650.0,10.09946418801564,0.1599809628713759,0.18127810700653688,10.440723257893554,13.48527778
3700.0,10.139607189191608,0.1652951942096563,0.18204059191291028,10.486942975314177,13.52694444
3750.0,10.17808697918844,0.1706522189845996,0.1827750676000005,10.53151426577304,13.57291667
3800.0,10.214983259020334,0.1760501879411655,0.18348284362884082,10.57451629059034,13.61458333
3850.0,10.25037176454066,0.1814873420720951,0.18416516411935574,10.616024270732112,13.65625
3900.0,10.284324466527329,0.18696200846058128,0.1848232111423314,10.65610968613024,13.69791667
3950.0,10.316909760444393,0.1924725962456933,0.18545810792114775,10.694840464611232,13.73958333
4000.0,10.348192646462284,0.19801759272175554,0.18607092185671514,10.732281161040753,13.78125
4050.0,10.378234900274421,0.20359555957887615,0.18666266738756754,10.768493127240864,13.82291667
4100.0,10.407095235209155,0.20920512928871138,0.18723430869582336,10.803534673193687,13.86458333
4150.0,10.434829456102038,0.21484500163714715,0.18778676226868687,10.837461220007869,13.90625
4200.0,10.461490605363291,0.2205139404037361,0.1883208993242831,10.870325445091309,13.94791667
4250.0,10.487129101648302,0.22621077018632285,0.18883754810986747,10.90217741994449,13.98958333
4300.0,10.511792871514697,0.23193437336823644,0.18933749607980555,10.933064740962738,14.03125
4350.0,10.53552747442728,0.23768368722464717,0.18982149196015208,10.963032653612077,14.07291667
4400.0,10.558376221451832,0.2434577011641227,0.1902902477061663,10.992124170322118,14.11458333
4450.0,10.58038028795996,0.2492554541010232,0.19074444035866,11.020380182419641,14.15625
4500.0,10.601578820649832,0.2550760319541184,0.1911847138046858,11.047839566408634,14.19791667
4550.0,10.622009039171354,0.2609185652666515,0.19161168044771776,11.07453928488572,14.23958333
4600.0,10.641706332629267,0.26678222694300513,0.19202592279216033,11.10051448236443,14.28125
4650.0,10.660704351223345,0.2726662300971117,0.19242799494672844,11.125798576267181,14.32291667
4700.0,10.679035093271569,0.2785698260077912,0.19281842405097563,11.150423343330331,14.36458333
4750.0,10.696728987849514,0.28449230217627297,0.19319771162900065,11.174419001654783,14.40625
4800.0,10.71381497326728,0.2904329804812644,0.1935663348741354,11.197814288622675,14.44791667
4850.0,10.730320571594103,0.2963912154270483,0.19392474786820554,11.220636534889351,14.48958333
4900.0,10.74627195943008,0.3023663924802341,0.19427338273875758,11.242911734649066,14.53125
4950.0,10.761694035114381,0.30835792649093174,0.19461265075746204,11.26466461236277,14.57291667
5000.0,10.776610482549778,0.31436526019427474,0.19494294338272963,11.285918686126777,14.61458333
5050.0,10.79104383181421,0.32038786278837444,0.195264633249415,11.306696327851997,14.65625
5100.0,10.805015516721573,0.32642522858494805,0.19557807510832997,11.327018820414848,14.69791667
5150.0,10.818545929485635,0.3324768757290202,0.19588360671814495,11.346906411932798,14.73958333
5200.0,10.83165447263336,0.3385423449842568,0.19618154969212087,11.366378367309734,14.78125
5250.0,10.844359608306446,0.34462119858064083,0.19647221030198753,11.38545301718907,14.82291667
5300.0,10.85667890508297,0.35071301912135183,0.19675588024116186,11.40414780444548,14.86458333
5350.0,10.868629082444317,0.3568174085458566,0.19703283734938687,11.422479328339556,14.90625
5400.0,10.880226053006306,0.3629339871463587,0.19730334630076285,11.440463386453422,14.94791667
5450.0,10.891484962627418,0.3690623926348929,0.19756765925704123,11.458115014519349,14.98958333
5500.0,10.902420228501338,0.37520227925847927,0.19782601648795442,11.475448524247769,15.03125
5550.0,10.913045575335584,0.3813533169598812,0.1980786469602627,11.492477539255722,15.07291667
5600.0,10.923374069712912,0.3875151905816292,0.19832576889711395,11.509215029191648,15.11458333
5650.0,10.933418152727231,0.39368759911109164,0.1985675903092283,11.525673342147545,15.15625
5700.0,10.943189670981225,0.39987025496448086,0.19880430949934266,11.541864235445042,15.19902778
5750.0,10.952699906028327,0.40606288330779305,0.1990361155412766,11.557798904877389,15.24069444
5800.0,10.961959602337698,0.4122652214127778,0.19926318873491003,11.57348801248538,15.28236111
5850.0,10.970978993856708,0.4184770180461314,0.19948570103829816,11.58894171294113,15.32402778
5900.0,10.979767829241743,0.42469803289019964,0.1997038164780849,11.604169678610019,15.36569444
5950.0,10.98833539582459,0.430928035993563,0.19991769153931746,11.619181123357462,15.40736111
6000.0,10.996690542378184,0.4371668072499598,0.20012747553570798,11.633984825163843,15.44902778
6050.0,11.00484170074231,0.4434141359040835,0.20033331096133383,11.64858914760772,15.49069444
6100.0,11.012796906366791,0.4496698200828634,0.2005353338247186,11.663002060274366,15.53236111
6150.0,11.020563817826783,0.4559336663509116,0.20073367396618647,11.677231158143872,15.57402778
6200.0,11.028149735361957,0.4622054892888855,0.20092845535933734,11.69128368001017,15.61569444
6250.0,11.035561618488885,0.46848511109358,0.20111979639744743,11.705166525979902,15.65736111
6300.0,11.042806102733246,0.4747723611986254,0.20130781016555732,11.718886274097416,15.69902778
6350.0,11.049889515526301,0.48106707591472386,0.20149260469897257,11.732449196139985,15.74069444
6400.0,11.056817891307679,0.4873690980884136,0.20167428322886297,11.745861272624945,15.78236111
6450.0,11.063596985874499,0.49367827677840187,0.20185294441561302,11.759128207068503,15.82416667
6500.0,11.070232290014767,0.4999944669485575,0.2020286825705418,11.772255439533856,15.86583333
6550.0,11.076729042461045,0.5063175291767001,0.20220158786657952,11.785248159504313,15.90763889
6600.0,11.08309224219867,0.5126473293783699,0.20237174653845844,11.798111318115488,15.94958333
6650.0,11.089326660160943,0.5189837385448012,0.20253924107294582,11.810849639778677,15.99152778
6700.0,11.095436850342107,0.5253266324943661,0.20270415038962192,11.823467633226084,16.03333333
6750.0,11.101427160357465,0.531675891636791,0.20286655001267842,11.835969602006923,16.07513889
6800.0,11.10730174147834,0.5380314007494847,0.2030265122341901,11.848359654462005,16.11722222
6850.0,11.113064558168293,0.5443930487653528,0.20318410626928807,11.860641713202925,16.15902778
6900.0,11.118719397145675,0.5507607285715029,0.20333939840364243,11.872819524120812,16.20069444
6950.0,11.124269875996243,0.5571343368182791,0.2034924521336407,11.884896664948155,16.24236111
7000.0,11.129719451358467,0.5635137737380904,0.20364332829962883,11.89687655339618,16.28402778
7050.0,11.135071426702934,0.5698989429735275,0.203792085212563,11.908762454889017,16.32569444
7100.0,11.14032895972623,0.5762897514142876,0.2039387787744036,11.920557489914913,16.3675
7150.0,11.145495069378585,0.5826861090424527,0.20408346259256402,11.932264641013594,16.40916667
7200.0,11.1505726425437,0.5890879287856877,0.20422618808871326,11.943886759418094,16.45083333
7250.0,11.15556444038809,0.5954951263779528,0.20436700460221466,11.955426571368248,16.49263889
7300.0,11.160473104396564,0.6019076202273379,0.2045059594884696,11.96688668411236,16.53430556
7350.0,11.165301162109522,0.6083253312906546,0.20464309821242088,11.978269591612586,16.57597222
7400.0,11.170051032576962,0.6147481829544338,0.20477846443745767,11.989577679968844,16.61777778
7450.0,11.170051032576962,0.6211761009219999,0.20477846443745767,11.996005597936412,16.65944444
7500.0,11.170051032576962,0.6276090129599389,0.20477846443745767,12.002438509974352,16.70111111
7550.0,11.170051032576962,0.63404683705366,0.20477846443745767,12.008876334068074,16.74277778
7600.0,11.170051032576962,0.6404893727755171,0.20477846443745767,12.01531886978993,16.78527778
7650.0,11.170051032576962,0.6469360100410718,0.20477846443745767,12.021765507055484,16.82833333
7700.0,11.170051032576962,0.6533853834114522,0.20477846443745767,12.028214880425864,16.87138889
7750.0,11.170051032576962,0.6598351536851809,0.20477846443745767,12.034664650699591,16.91444444
7800.0,11.170051032576962,0.6662819658872418,0.20477846443745767,12.041111462901652,16.9575
7850.0,11.170051032576962,0.6727215379423375,0.20477846443745767,12.047551034956749,17.00055556
7900.0,11.170051032576962,0.6791488167164154,0.20477846443745767,12.053978313730827,17.04361111
7950.0,11.170051032576962,0.6855581540366235,0.20477846443745767,12.060387651051034,17.08736111
8000.0,11.170051032576962,0.6919434752238461,0.20477846443745767,12.066772972238256,17.13180556
8050.0,11.170051032576962,0.6982984272688068,0.20477846443745767,12.073127924283217,17.17625
8100.0,11.170051032576962,0.7046165025266684,0.20477846443745767,12.079445999541079,17.22069444
8150.0,11.170051032576962,0.7108911383873118,0.20477846443745767,12.085720635401723,17.26513889
8200.0,11.170051032576962,0.7171157954467963,0.20477846443745767,12.091945292461206,17.30958333
8250.0,11.170051032576962,0.7232840173962618,0.20477846443745767,12.098113514410672,17.35402778
8300.0,11.170051032576962,0.7293894758433296,0.20477846443745767,12.104218972857739,17.39847222
8350.0,11.170051032576962,0.7354260029714147,0.20477846443745767,12.110255499985824,17.44027778
8400.0,11.170051032576962,0.741387614655985,0.20477846443745767,12.116217111670396,17.47777778
8450.0,11.170051032576962,0.7472685343191184,0.20477846443745767,12.122098031333529,17.51097222
8500.0,11.170051032576962,0.7530632688934819,0.20477846443745767,12.127892765907893,17.53986111
8550.0,11.170051032576962,0.7587667704409369,0.20477846443745767,12.13359626745535,17.56458333
8600.0,11.170051032576962,0.7643746056095126,0.20477846443745767,12.139204102623925,17.58555556
8650.0,11.170051032576962,0.7698830496130251,0.20477846443745767,12.144712546627437,17.60375
8700.0,11.170051032576962,0.7752890913680198,0.20477846443745767,12.150118588382432,17.61958333
8750.0,11.170051032576962,0.7805903769649608,0.20477846443745767,12.155419873979373,17.63402778
8800.0,11.170051032576962,0.7857851230108072,0.20477846443745767,12.16061462002522,17.64791667
