Time [s],Autoclave Body Heat Transfer [kWh],Heat Lost To The Environment[kWh],Mould Assembly Heat Transfer [kWh],Simulated Energy Log [kWh],Experimental Energy Log [kWh]
0.0,0.0,0.0,0.0,0.0,-0.008611111
100.0,0.0,0.0,0.0,0.0,0.042638889
200.0,0.8966456343553599,0.0015721114048381846,0.024556882242765483,0.9227746280029637,0.31
300.0,2.8640946861804304,0.016354306434540535,0.07844039300010534,2.9588893856150764,0.838194444
400.0,5.057266922751787,0.05121451941512375,0.13850589746252995,5.246987339629442,1.391388889
500.0,7.285890693419122,0.10921580978941613,0.19954233081231398,7.594648834020854,1.946527778
600.0,9.513901171403688,0.19198391571445053,0.2605619676087953,9.966447054726935,2.500277778
700.0,11.734259353231527,0.3005653996024747,0.3213720271448658,12.356196779978868,3.053333333
800.0,13.94675803156907,0.43572796135337827,0.38196683452969304,14.764452827452141,3.603888889
900.0,16.15245553393158,0.5980806557904834,0.442375374708021,17.192911564430084,4.152222222
1000.0,18.34818086964087,0.7881123685142176,0.5025108021728918,19.638804040327983,4.699027778
1100.0,20.540673703683247,1.0062181668254713,0.5625576994986056,22.109449570007325,5.245
1200.0,22.732892741249138,1.2528324589930127,0.6225970982233404,24.60832229846549,5.78875
1300.0,24.919134964484297,1.5282702658274692,0.6824728069460464,27.129878037257814,6.327777778
1400.0,27.106898511428852,1.8328763849234793,0.7423901809217281,29.682165077274064,6.868611111
1500.0,29.285003489344334,2.1668924718691045,0.8020430308388601,32.253938992052305,7.416666667
1600.0,31.211647016372144,2.529911618294762,0.8548089802889159,34.596367614955824,7.992222222
1700.0,31.736821106769032,2.905277710202487,0.8691921856497494,35.51129100262127,8.595972222
1800.0,31.857118593601502,3.28358943673552,0.8724868330612315,36.013194863398255,9.321944444
1900.0,31.887124446191407,3.6626650968630763,0.8733086183467573,36.42309816140124,10.01347222
2000.0,31.895091675590603,4.041951913436508,0.8735268208413225,36.81057040986844,10.83319444
2100.0,31.89730768931638,4.42129983101659,0.8735875119170687,37.19219503225005,11.36555556
2200.0,31.89794708361218,4.800666051537532,0.8736050233282964,37.572218158478016,11.81986111
2300.0,31.89813738971327,5.180037909637065,0.8736102353366255,37.95178553468698,12.09263889
2400.0,31.89819560997763,5.559411545452401,0.8736118298441113,38.33121898527416,12.27555556
2500.0,31.89821386627749,5.9387857532873936,0.8736123298385224,38.71061194940342,12.41625
2600.0,31.898219718349136,6.318160148424135,0.8736124901121343,39.089992356885425,12.53347222
2700.0,31.89822163079917,6.697534605817263,0.8736125424893594,39.469368779105814,12.63069444
2800.0,31.898222266250695,7.076909084169318,0.873612559892788,39.84874391031283,12.7275
2900.0,31.898222480375935,7.456283569653746,0.873612565757143,40.22811861578685,12.81930556
3000.0,31.89822255337645,7.835658057587374,0.8736125677564444,40.60749317872029,12.91208333
3100.0,31.89822257850477,8.215032546368414,0.8736125684446464,40.98686769331786,12.99888889
3200.0,31.89822258722272,8.594407035444506,0.873612568683409,41.36624219135066,13.09083333
3300.0,31.898222590266705,8.973781524623867,0.8736125687667763,41.745616683657374,13.17638889
3400.0,31.89822259133547,9.353156013839534,0.8736125687960471,42.12499117397108,13.26625
3500.0,31.898222591712244,9.732530503068016,0.8736125688063658,42.50436566358665,13.35208333
3600.0,31.89822259184535,10.11190499230103,0.8736125688100114,42.88374015295641,13.43972222
3700.0,31.89822259189252,10.49127948153565,0.8736125688113031,43.26311464223949,13.52694444
3800.0,31.898222591909725,10.870653970770846,0.8736125688117744,43.642489131492376,13.61458333
3900.0,31.898222591915847,11.25002846000625,0.8736125688119422,44.021863620734074,13.69791667
4000.0,31.898222591918017,11.629402949241726,0.8736125688120016,44.40123810997178,13.78125
4100.0,31.898222591918756,12.008777438477228,0.8736125688120219,44.78061259920805,13.86458333
4200.0,31.89822259191898,12.388151927712737,0.8736125688120279,45.15998708844379,13.94791667
4300.0,31.898222591918987,12.767526416948249,0.8736125688120282,45.539361577679315,14.03125
4400.0,31.898222591918987,13.146900906183761,0.8736125688120282,45.91873606691483,14.11458333
4500.0,31.898222591918987,13.526275395419272,0.8736125688120282,46.29811055615034,14.19791667
4600.0,31.898222591918987,13.905649884654784,0.8736125688120282,46.67748504538586,14.28125
4700.0,31.898222591918987,14.285024373890296,0.8736125688120282,47.056859534621374,14.36458333
4800.0,31.898222591918987,14.664398863125808,0.8736125688120282,47.43623402385688,14.44791667
4900.0,31.898222591918987,15.04217829990216,0.8736125688120282,47.81401346063324,14.53125
5000.0,31.898222591918987,15.41512311133435,0.8736125688120282,48.18695827206543,14.61458333
5100.0,31.898222591918987,15.782393752386591,0.8736125688120282,48.55422891311767,14.69791667
5200.0,31.898222591918987,16.143793599442336,0.8736125688120282,48.91562876017342,14.78125
5300.0,31.898222591918987,16.49907809330023,0.8736125688120282,49.27091325403131,14.86458333
5400.0,31.898222591918987,16.84640610077501,0.8736125688120282,49.6182412615061,14.94791667
5500.0,31.898222591918987,17.185200008281505,0.8736125688120282,49.957035169012585,15.03125
5600.0,31.898222591918987,17.515337078247473,0.8736125688120282,50.287172238978556,15.11458333
5700.0,31.898222591918987,17.836793857612466,0.8736125688120282,50.60862901834355,15.19902778
5800.0,31.898222591918987,18.14958674378678,0.8736125688120282,50.92142190451786,15.28236111
5900.0,31.898222591918987,18.453737006980358,0.8736125688120282,51.22557216771144,15.36569444
6000.0,31.898222591918987,18.74927546976935,0.8736125688120282,51.52111063050043,15.44902778
6100.0,31.898222591918987,19.03621027453317,0.8736125688120282,51.808045435264255,15.53236111
6200.0,31.898222591918987,19.314577323018995,0.8736125688120282,52.086412483750074,15.61569444
6300.0,31.898222591918987,19.584398032994088,0.8736125688120282,52.35623319372517,15.69902778
6400.0,31.898222591918987,19.845702351931564,0.8736125688120282,52.61753751266264,15.78236111
6500.0,31.898222591918987,20.098525647761143,0.8736125688120282,52.87036080849222,15.86583333
6600.0,31.898222591918987,20.342895403088363,0.8736125688120282,53.11473056381944,15.94958333
6700.0,31.898222591918987,20.57882364624244,0.8736125688120282,53.35065880697352,16.03333333
6800.0,31.898222591918987,20.806362379978964,0.8736125688120282,53.57819754071005,16.11722222
6900.0,31.898222591918987,21.02554034316348,0.8736125688120282,53.797375503894564,16.20069444
7000.0,31.898222591918987,21.236392535080117,0.8736125688120282,54.0082276958112,16.28402778
7100.0,31.898222591918987,21.438936080392086,0.8736125688120282,54.21077124112317,16.3675
7200.0,31.898222591918987,21.63323240141911,0.8736125688120282,54.4050675621502,16.45083333
7300.0,31.898222591918987,21.819308060199795,0.8736125688120282,54.59114322093089,16.53430556
7400.0,31.898222591918987,21.99719981989223,0.8736125688120282,54.769034980623324,16.61777778
7500.0,31.898222591918987,22.16694854833474,0.8736125688120282,54.93878370906584,16.70111111
7600.0,31.898222591918987,22.32859631546858,0.8736125688120282,55.100431476199674,16.78527778
7700.0,31.898222591918987,22.48219075270707,0.8736125688120282,55.25402591343817,16.87138889
7800.0,31.898222591918987,22.627795425109465,0.8736125688120282,55.39963058584057,16.9575
7900.0,31.898222591918987,22.765436252125543,0.8736125688120282,55.53727141285665,17.04361111
8000.0,31.898222591918987,22.895179323612897,0.8736125688120282,55.667014484344,17.13180556
8100.0,31.898222591918987,23.01708179074172,0.8736125688120282,55.788916951472814,17.22069444
8200.0,31.898222591918987,23.131209849789954,0.8736125688120282,55.903045010521055,17.30958333
8300.0,31.898222591918987,23.237619134975667,0.8736125688120282,56.009454295706774,17.39847222
8400.0,31.898222591918987,23.33637052089101,0.8736125688120282,56.10820568162212,17.47777778
8500.0,31.898222591918987,23.427548000423123,0.8736125688120282,56.19938316115423,17.53986111
8600.0,31.898222591918987,23.511222282817833,0.8736125688120282,56.28305744354895,17.58555556
8700.0,31.898222591918987,23.58749374641924,0.8736125688120282,56.359328907150356,17.61958333
8800.0,31.898222591918987,23.656444392086406,0.8736125688120282,56.42827955281752,17.64791667
8900.0,31.898222591918987,23.718169015854482,0.8736125688120282,56.49000417658559,17.64930556
9000.0,31.898222591918987,23.772778981622867,0.8736125688120282,56.54461414235398,17.64930556
9100.0,31.898222591918987,23.82040632260545,0.8736125688120282,56.592241483336565,17.64930556
9200.0,31.898222591918987,23.861199324872597,0.8736125688120282,56.63303448560371,17.64930556
9300.0,31.898222591918987,23.895316340243234,0.8736125688120282,56.66715150097435,17.64930556
9400.0,31.898222591918987,23.922946085369276,0.8736125688120282,56.69478124610039,17.64930556
9500.0,31.898222591918987,23.944312640567095,0.8736125688120282,56.716147801298206,17.64930556
9600.0,31.898222591918987,23.95969298168854,0.8736125688120282,56.731528142419656,17.64930556
9700.0,31.898222591918987,23.970713281965253,0.8736125688120282,56.74254844269637,17.64930556
9800.0,31.898222591918987,23.980499664694367,0.8736125688120282,56.752334825425486,17.64930556
9900.0,31.898222591918987,23.98992706370115,0.8736125688120282,56.76176222443226,17.64930556
10000.0,31.898222591918987,23.99922830754803,0.8736125688120282,56.771063468279145,17.64930556
10100.0,31.898222591918987,24.008471657220014,0.8736125688120282,56.78030681795113,17.64930556
10200.0,31.898222591918987,24.017678470885034,0.8736125688120282,56.78951363161615,17.64930556
10300.0,31.898222591918987,24.026855748697955,0.8736125688120282,56.79869090942908,17.64930556
10400.0,31.898222591918987,24.036005870425257,0.8736125688120282,56.80784103115638,17.64930556
10500.0,31.898222591918987,24.045129672733736,0.8736125688120282,56.816964833464866,17.64930556
10600.0,31.898222591918987,24.05422746151961,0.8736125688120282,56.82606262225074,17.64930556
10700.0,31.898222591918987,24.063299355594093,0.8736125688120282,56.835134516325226,17.64930556
10800.0,31.898222591918987,24.072345406446807,0.8736125688120282,56.84418056717795,17.64930556
10900.0,31.898222591918987,24.081365640916577,0.8736125688120282,56.853200801647716,17.64930556
11000.0,31.898222591918987,24.090360076687734,0.8736125688120282,56.862195237418874,17.64930556
11100.0,31.898222591918987,24.098717343271534,0.8736125688120282,56.870552504002674,17.64930556
11200.0,31.898222591918987,24.104490395943184,0.8736125688120282,56.876325556674324,17.64930556
11300.0,31.898222591918987,24.107313608989735,0.8736125688120282,56.879148769720885,17.64930556
11400.0,31.898222591918987,24.1076165245675,0.8736125688120282,56.87945168529865,17.64930556
11500.0,31.898222591918987,24.1076165245675,0.8736125688120282,56.87945168529865,17.64930556
11600.0,31.898222591918987,24.1076165245675,0.8736125688120282,56.87945168529865,17.64930556
11700.0,31.898222591918987,24.1076165245675,0.8736125688120282,56.87945168529865,17.64930556
11800.0,31.898222591918987,24.1076165245675,0.8736125688120282,56.87945168529865,17.64930556
11900.0,31.898222591918987,24.1076165245675,0.8736125688120282,56.87945168529865,17.64930556
12000.0,31.898222591918987,24.1076165245675,0.8736125688120282,56.87945168529865,17.64930556
