Time [s],Autoclave Body Heat Transfer [kWh],Heat Lost To The Environment[kWh],Mould Assembly Heat Transfer [kWh],Simulated Energy Log [kWh],Experimental Energy Log [kWh]
0.0,0.0,0.0,0.0,0.0,-0.008611111
100.0,0.0,4.972330443027354e-15,0.0,4.972330443027354e-15,0.042638889
200.0,2.4766240594837634,1.4086612145101928e-11,0.06055766533948082,2.537181724837331,0.31
300.0,5.536062045184357,3.0994673756091183e-09,0.13513801920405638,5.67120006748788,0.838194444
400.0,9.054910596675938,6.479705355357498e-08,0.2207108159195942,9.275621477392585,1.391388889
500.0,12.951943462114778,5.401255415038673e-07,0.31528107049775606,13.267225072738077,1.946527778
600.0,17.172027426541526,2.726321729320059e-06,0.41749456807932045,17.589524720942578,2.500277778
700.0,21.676544431389974,1.0007886693602739e-05,0.5264027199272396,22.20295715920391,3.053333333
800.0,26.43756241063266,2.9465550960260528e-05,0.6413193822836035,27.07891125846722,3.603888889
900.0,31.434216553054014,7.379933916748058e-05,0.7617319677670102,32.196022320160196,4.152222222
1000.0,36.65041980137835,0.00016336747674770472,0.8872452346686369,37.53782840352374,4.699027778
1100.0,42.07338692804104,0.00032814883850641724,1.0175450868441402,43.0912601637237,5.245
1200.0,47.69266495343019,0.0006094754408667677,1.152374826790045,48.845649255661115,5.78875
1300.0,53.49948392059178,0.0010614329008455082,1.2915192819038213,54.79206463539646,6.327777778
1400.0,59.486313764670875,0.001751876965074078,1.4347939881861023,60.922859629822064,6.868611111
1500.0,65.64655606469793,0.0027630557798368244,1.5820376763175574,67.23135679679534,7.416666667
1600.0,71.97432564668983,0.004191857960386968,1.7331069510518373,73.71162445570208,7.992222222
1700.0,78.46429313095526,0.006149726066849581,1.8878724531275628,80.35831531014968,8.595972222
1800.0,85.11156957149929,0.008762285568019786,2.04621604136169,87.166547898429,9.321944444
1900.0,91.91162068729035,0.01216874298516954,2.208028689469868,94.13181811974538,10.01347222
2000.0,98.86020225300928,0.01652110577176436,2.373208892482738,101.24993225126377,10.83319444
2100.0,105.51257216620242,0.021983272375091577,2.530867164021381,108.06542260259889,11.36555556
2200.0,110.14052574080834,0.028730035141928803,2.638828331257467,112.80808410720773,11.81986111
2300.0,114.35192240382594,0.03694602648449811,2.7365799208274404,117.12544835113788,12.09263889
2400.0,118.25651074389386,0.046824577165191,2.826821151020914,121.13015647207995,12.27555556
2500.0,121.92592929423203,0.05856634020246537,2.911315970472885,124.89581160490738,12.41625
2600.0,125.40816482091526,0.07237751033766168,2.9912477271583318,128.47179005841124,12.53347222
2700.0,128.7361987551944,0.08846757589917835,3.0674314430698058,131.89209777416337,12.63069444
2800.0,131.9332887959191,0.10704667935822987,3.1404435214279958,135.1807789967053,12.7275
2900.0,135.01625862814498,0.12832275898389814,3.21070252003218,138.35528390716107,12.81930556
3000.0,137.997585761337,0.15249867719324267,3.278520374972499,141.42860481350272,12.91208333
3100.0,140.88675147616377,0.17976952435569837,3.3441354761781947,144.41065647669762,12.99888889
3200.0,143.6911301850879,0.2103202420125145,3.407734417900853,147.30918484500123,13.09083333
3300.0,146.41658653709513,0.24432365583116247,3.4694665702428065,150.13037676316907,13.17638889
3400.0,149.06788394683127,0.28193895857617074,3.5294540269847867,152.87927693239223,13.26625
3500.0,151.64896932811797,0.32331064314847696,3.5877985261576644,155.5600784974241,13.35208333
3600.0,154.16317510033946,0.3685678571117451,3.6445863545393706,158.17632931199054,13.43972222
3700.0,156.61336490206529,0.4178241322995007,3.699891885702825,160.7310809200676,13.52694444
3800.0,159.00204030085715,0.47117743411008794,3.753780175230712,163.22699791019795,13.61458333
3900.0,161.33141999808635,0.5287104726715918,3.806308893713605,165.66643936447153,13.69791667
4000.0,163.60349931075692,0.5904912200928896,3.8575297865114364,168.05152031736122,13.78125
4100.0,165.82009529080594,0.6565735827820592,3.907489789732233,170.38415866332022,13.86458333
4200.0,167.9828812396046,0.7269981840038436,3.9562318926474136,172.66611131625586,13.94791667
4300.0,170.09341329674973,0.8017932185417779,4.003795810498991,174.8990023257905,14.03125
4400.0,172.15315104373911,0.8809753479219867,4.0502185137849755,177.08434490544607,14.11458333
4500.0,174.16347354867165,0.9645506107785475,4.095534647747293,179.22355880719743,14.19791667
4600.0,176.12569191359114,1.0525153284015398,4.139776867090179,181.31798410908283,14.28125
4700.0,178.04105912359526,1.1448569902331227,4.182976104738454,183.3688922185668,14.36458333
4800.0,179.91077780494658,1.2415551080644742,4.2251617889287045,185.37749470193972,14.44791667
4900.0,181.73600635724287,1.3425820309826846,4.266362019598508,187.34495040782403,14.53125
5000.0,183.5178638181019,1.4479037157908672,4.306603712554546,189.27237124644722,14.61458333
5100.0,185.25743373805608,1.557480449756082,4.3459127180241754,191.16082690583627,14.69791667
5200.0,186.9557672816481,1.6712675242078001,4.384313918763688,193.0113487246195,14.78125
5300.0,188.61388572323213,1.7892158587903793,4.421831311795047,194.82493289381745,14.86458333
5400.0,190.2327824692298,1.911272577134167,4.458488076989097,196.60254312335294,14.94791667
5500.0,191.81342471000218,2.0373815354118636,4.494306635047283,198.34511288046122,15.03125
5600.0,193.3567547821888,2.167483805740541,4.529308696911831,200.05354728484107,15.11458333
5700.0,194.8636913049004,2.30151811671892,4.563515306223254,201.72872472784252,15.19902778
5800.0,196.33513013944932,2.4394212535898343,4.596946876119133,203.3714982691582,15.28236111
5900.0,197.7719452115427,2.581128420619099,4.629623221410718,204.9826968535724,15.36569444
6000.0,199.17498922639575,2.7265735683079244,4.661563586969123,206.56312638167267,15.44902778
6100.0,200.54509430056538,2.875689688026085,4.692786672990044,208.11357066158138,15.53236111
6200.0,201.88307252906222,3.028409076582451,4.72331065767576,209.63479226332032,15.61569444
6300.0,203.18971650217665,3.1846635731505355,4.753153217769283,211.12753329309635,15.69902778
6400.0,204.46579978321168,3.344384770848573,4.782331547292247,212.5925161013524,15.78236111
6500.0,205.71207735576965,3.507504205143995,4.810862374771425,214.03044393568496,15.86583333
6600.0,206.92928604724176,3.673953521116315,4.838761979185172,215.44200154754313,15.94958333
6700.0,208.11814493358483,3.843664621474749,4.866046204818058,216.82785575987754,16.03333333
6800.0,209.27935572924844,4.016569797090444,4.892730475177272,218.18865600151602,16.11722222
6900.0,210.41360316516193,4.1926018416702,4.918829806096462,219.52503481292848,16.20069444
7000.0,211.5215553569542,4.37169415207069,4.944358818130174,220.83760832715495,16.28402778
7100.0,212.603864165003,4.553780815630384,4.969331748323793,222.12697672895706,16.3675
7200.0,213.6611655474756,4.738796685781421,4.993762461429232,223.39372469468614,16.45083333
7300.0,214.6940799071824,4.926677447095722,5.017664460624619,224.6384218149026,16.53430556
7400.0,215.70321243281248,5.11735967081904,5.041050897786613,225.86162300141802,16.61777778
7500.0,215.78586367207456,5.310780861853113,5.041819102638989,226.13846363656654,16.70111111
7600.0,215.78586367207456,5.5068794978853015,5.041819102638989,226.3345622725987,16.78527778
7700.0,215.78586367207456,5.705595050003108,5.041819102638989,226.5332778247165,16.87138889
7800.0,215.78586367207456,5.9068678889658965,5.041819102638989,226.73455066367927,16.9575
7900.0,215.78586367207456,6.110638841793756,5.041819102638989,226.93832161650715,17.04361111
8000.0,215.78586367207456,6.316848163916715,5.041819102638989,227.1445309386301,17.13180556
8100.0,215.78586367207456,6.525433850662634,5.041819102638989,227.353116625376,17.22069444
8200.0,215.78586367207456,6.736329395380935,5.041819102638989,227.56401217009432,17.30958333
8300.0,215.78586367207456,6.9494612205898605,5.041819102638989,227.77714399530325,17.39847222
8400.0,215.78586367207456,7.164746045172823,5.041819102638989,227.99242881988621,17.47777778
8500.0,215.78586367207456,7.382088424901386,5.041819102638989,228.20977119961478,17.53986111
8600.0,215.78586367207456,7.60137865112299,5.041819102638989,228.42906142583638,17.58555556
8700.0,215.78586367207456,7.822491170260092,5.041819102638989,228.6501739449735,17.61958333
8800.0,215.78586367207456,8.045283692132895,5.041819102638989,228.8729664668463,17.64791667
