Time [s],Autoclave Body Heat Transfer [kWh],Heat Lost To The Environment[kWh],Mould Assembly Heat Transfer [kWh],Simulated Energy Log [kWh],Experimental Energy Log [kWh]
0.0,0.0,0.0,0.0,0.0,-0.008611111
100.0,0.0,4.786521286975154e-16,0.0,4.786521286975154e-16,0.042638889
200.0,0.1643929049235259,6.873690725846478e-07,0.0028497276109685633,0.16724331990356706,0.31
300.0,0.3980745650099336,2.3565591502696374e-05,0.006862898402948887,0.40496102900438524,0.838194444
400.0,0.6776875404147353,0.00016132377153806415,0.01162788945879305,0.6894767536450666,1.391388889
500.0,0.9948568047827999,0.0005934032981187567,0.016996897097177586,1.012447105178096,1.946527778
600.0,1.3448944901209428,0.0015631199018064869,0.022889075705710586,1.3693466857284595,2.500277778
700.0,1.7242663673744232,0.0033474022162698807,0.029245656978935625,1.756859426569628,3.053333333
800.0,2.129961283180535,0.006233221232958622,0.03601809750701409,2.172212601920507,3.603888889
900.0,2.5593128728652372,0.010502474334135896,0.04316433139118185,2.612979678590554,4.152222222
1000.0,3.0099347631995297,0.01642337571171023,0.050647242921112896,3.077005381832352,4.699027778
1100.0,3.4796858332666587,0.0242461333188481,0.05843383666305617,3.5623658032485626,5.245
1200.0,3.966644392261498,0.03420125098722583,0.06649467188183036,4.067340315130553,5.78875
1300.0,4.469085904466245,0.046499363789483134,0.0748034232847917,4.590388691540518,6.327777778
1400.0,4.9854629277712155,0.06133192781826887,0.0833365172223671,5.130131372811851,6.868611111
1500.0,5.51438692527298,0.07887235416575036,0.0920728209088629,5.685332100347592,7.416666667
1600.0,6.054611818020212,0.09927734378148355,0.10099337268256524,6.25488253448426,7.992222222
1700.0,6.605019168472156,0.12268828148406082,0.11008114576435662,6.837788595720572,8.595972222
1800.0,7.164604873246605,0.14923260865994542,0.11932084018063002,7.43315832208718,9.321944444
1900.0,7.73246723569509,0.17902513091689187,0.12869869878577744,8.040191065397758,10.01347222
2000.0,8.307796288462475,0.21216923886899242,0.13820234414015517,8.658167871471623,10.83319444
2100.0,8.865028737064291,0.24875803317647383,0.14738765362430098,9.261174423865066,11.36555556
2200.0,9.271269732087244,0.2888735310880301,0.15396382426508148,9.714107087440354,11.81986111
2300.0,9.620989824900356,0.33255920873799133,0.15959992746263324,10.113148961100977,12.09263889
2400.0,9.93204846511968,0.37977223621294476,0.16461216332259512,10.476432864655214,12.27555556
2500.0,10.211231736187564,0.43037890975525234,0.16912081122509987,10.810731457167911,12.41625
2600.0,10.462526124016152,0.48418214320717695,0.17319462295189023,11.119902890175213,12.53347222
2700.0,10.68900822311022,0.5409518660753344,0.1768846124493241,11.40684470163487,12.63069444
2800.0,10.893318462492902,0.6004475511398599,0.18023317262183775,11.673999186254592,12.7275
2900.0,11.077796268342691,0.6624323703889844,0.1832770359423832,11.923505674674052,12.81930556
3000.0,11.244530796293972,0.7266811778740266,0.18604852546297235,12.157260499630961,12.91208333
3100.0,11.395389809671812,0.7929844925392465,0.18857626143715467,12.376950563648204,12.99888889
3200.0,11.532042301647593,0.861150050458877,0.19088565809791216,12.584078010204374,13.09083333
3300.0,11.655978615938904,0.9310029444997635,0.19299931774217724,12.779980878180838,13.17638889
3400.0,11.76852886536326,1.0023849809127567,0.19493736165998507,12.965851207935996,13.26625
3500.0,11.870879778278228,1.0751536323513433,0.19671771538224117,13.142751126011806,13.35208333
3600.0,11.964090003528842,1.1491808120464486,0.1983563576681181,13.311627173243402,13.43972222
3700.0,12.049103926352453,1.2243515997215109,0.19986753927948722,13.473323065353444,13.52694444
3800.0,12.12676407961116,1.300562993046207,0.20126397593474019,13.6285910485921,13.61458333
3900.0,12.197822254821716,1.3777227243562244,0.20255701888581162,13.778101998063743,13.69791667
4000.0,12.262949425633641,1.4557481620448447,0.20375680594352263,13.922454393621999,13.78125
4100.0,12.322744596440499,1.5345653040305174,0.2048723953326841,14.06218229580369,13.86458333
4200.0,12.377742684058402,1.6141078637431898,0.2059118844187181,14.197762432220301,13.94791667
4300.0,12.4284215331706,1.6943164451660513,0.20688251507561292,14.329620493412254,14.03125
4400.0,12.475208157942875,1.7751378014127068,0.2077907672404704,14.458136726596043,14.11458333
4500.0,12.518484293697,1.8565241703768123,0.20864244201041765,14.583650906084221,14.19791667
4600.0,12.558591334255214,1.9384326807109618,0.20944273547530892,14.706466750441475,14.28125
4700.0,12.595834722780767,2.020824821497044,0.21019630433905864,14.826855848616862,14.36458333
4800.0,12.630487856750928,2.1036659692909017,0.21090732425980757,14.945061150301632,14.44791667
4900.0,12.662795561145584,2.1869249666553716,0.21157954173160257,15.06130006953255,14.53125
5000.0,12.69297717800991,2.2705737467738847,0.21221632023567438,15.175767245019461,14.61458333
5100.0,12.721229315224296,2.3545869992235615,0.2128206813059957,15.288636995753846,14.69791667
5200.0,12.747728292546272,2.43894187245977,0.21339534108014785,15.400065506086184,14.78125
5300.0,12.772632318732647,2.5236177090110483,0.21394274284142697,15.510192770585117,14.86458333
5400.0,12.796083429757234,2.608595809797874,0.21446508600054454,15.619144325555649,14.94791667
5500.0,12.818209214765641,2.6938592243686363,0.21496435191433227,15.727032791048602,15.03125
5600.0,12.8391243534102,2.7793925641911623,0.21544232689377724,15.833959244495134,15.11458333
5700.0,12.858931985545862,2.865181836449549,0.21590062271380217,15.940014444709208,15.19902778
5800.0,12.877724931905163,2.951214296075891,0.21634069490187408,16.045279922882923,15.28236111
5900.0,12.89558678227463,3.03747831399704,0.21676385905123854,16.149828955322906,15.36569444
6000.0,12.912592865836382,3.1239632598003992,0.21717130537687607,16.25372743101365,15.44902778
6100.0,12.928811116690687,3.2106593972223356,0.21756411170773782,16.357034625620756,15.53236111
6200.0,12.944302846114319,3.2975577910405267,0.21794325508708776,16.45980389224193,15.61569444
6300.0,12.959123431814254,3.384650224109642,0.21830962213352262,16.56208327805741,15.69902778
6400.0,12.973322933288017,3.471929123420282,0.21866401829818158,16.663916075006476,15.78236111
6500.0,12.986946641383897,3.5593874941859465,0.21900717613853626,16.765341311708376,15.86583333
6600.0,13.000035569251471,3.6470188610736787,0.2193397627157508,16.866394193040893,15.94958333
6700.0,13.012626891072543,3.734817215792448,0.21966238621071676,16.9671064930757,16.03333333
6800.0,13.024754334252405,3.8227769703407657,0.21997560184333034,17.067506906436492,16.11722222
6900.0,13.036448530121596,3.910892915292589,0.22027991717022932,17.167621362584406,16.20069444
7000.0,13.047737327639531,3.9991601825694327,0.22057579682791367,17.26747330703687,16.28402778
7100.0,13.058646074095376,4.087574212207794,0.22086366678081115,17.367083953083974,16.3675
7200.0,13.069197866361474,4.176130722685256,0.22114391812731338,17.466472507174036,16.45083333
7300.0,13.079413775863703,4.264825684416874,0.22141691051100348,17.565656370791572,16.53430556
7400.0,13.089313050086131,4.353655296076274,0.22168297517914182,17.66465132134154,16.61777778
7500.0,13.089313050086131,4.442615962207937,0.22168297517914182,17.753611987473203,16.70111111
7600.0,13.089313050086131,4.53170014859361,0.22168297517914182,17.842696173858876,16.78527778
7700.0,13.089313050086131,4.620851186734295,0.22168297517914182,17.93184721199956,16.87138889
7800.0,13.089313050086131,4.709902312530897,0.22168297517914182,18.02089833779616,16.9575
7900.0,13.089313050086131,4.798577816377505,0.22168297517914182,18.10957384164277,17.04361111
8000.0,13.089313050086131,4.886531256231489,0.22168297517914182,18.197527281496754,17.13180556
8100.0,13.089313050086131,4.973384278951023,0.22168297517914182,18.28438030421629,17.22069444
8200.0,13.089313050086131,5.058754271512246,0.22168297517914182,18.36975029677751,17.30958333
8300.0,13.089313050086131,5.14227112811623,0.22168297517914182,18.453267153381493,17.39847222
8400.0,13.089313050086131,5.223586245162466,0.22168297517914182,18.53458227042773,17.47777778
8500.0,13.089313050086131,5.302379234059528,0.22168297517914182,18.613375259324794,17.53986111
8600.0,13.089313050086131,5.378383730770808,0.22168297517914182,18.689379756036075,17.58555556
8700.0,13.089313050086131,5.451415880630087,0.22168297517914182,18.762411905895352,17.61958333
8800.0,13.089313050086131,5.521370089829564,0.22168297517914182,18.83236611509483,17.64791667
